t,theta,omega,frame_num,eq_num
0.000500,0.401500,2.999217,0,0
0.001000,0.402999,2.998431,1,0
0.001500,0.404498,2.997643,2,0
0.002000,0.405997,2.996852,3,0
0.002500,0.407495,2.996058,4,0
0.003000,0.408993,2.995261,5,0
0.003500,0.410491,2.994461,6,0
0.004000,0.411988,2.993659,7,0
0.004500,0.413484,2.992854,8,0
0.050000,0.547822,2.908479,9,0
0.100000,0.690435,2.792201,10,0
0.150000,0.826684,2.654451,11,0
0.200000,0.955581,2.498759,12,0
0.250000,1.076320,2.328664,13,0
0.300000,1.188264,2.147522,14,0
0.350000,1.290939,1.958357,15,0
0.400000,1.384010,1.763766,16,0
0.450000,1.467261,1.565879,17,0
0.500000,1.540570,1.366350,18,0
0.550000,1.603888,1.166384,19,0
0.600000,1.657215,0.966781,20,0
0.650000,1.700580,0.767991,21,0
0.700000,1.734030,0.570177,22,0
0.750000,1.757613,0.373274,23,0
0.800000,1.771369,0.177052,24,0
0.850000,1.775324,-0.018824,25,0
0.900000,1.769486,-0.214743,26,0
0.950000,1.753843,-0.411084,27,0
1.000000,1.728365,-0.608165,28,0
1.050000,1.693011,-0.806188,29,0
1.100000,1.647730,-1.005173,30,0
1.150000,1.592481,-1.204901,31,0
1.200000,1.527236,-1.404854,32,0
1.250000,1.452006,-1.604150,33,0
1.300000,1.366854,-1.801491,34,0
1.350000,1.271918,-1.995123,35,0
1.400000,1.167440,-2.182818,36,0
1.450000,1.053780,-2.361880,37,0
1.500000,0.931447,-2.529210,38,0
1.550000,0.801111,-2.681400,39,0
1.600000,0.663619,-2.814899,40,0
1.650000,0.519991,-2.926214,41,0
1.700000,0.371420,-3.012150,42,0
1.750000,0.219244,-3.070061,43,0
1.800000,0.064913,-3.098070,44,0
1.850000,-0.090049,-3.095248,45,0
1.900000,-0.244099,-3.061690,46,0
1.950000,-0.395724,-2.998516,47,0
2.000000,-0.543491,-2.907761,48,0
2.050000,-0.686086,-2.792190,49,0
2.100000,-0.822350,-2.655070,50,0
2.150000,-0.951293,-2.499920,51,0
2.200000,-1.072101,-2.330273,52,0
2.250000,-1.184135,-2.149486,53,0
2.300000,-1.286915,-1.960586,54,0
2.350000,-1.380102,-1.766179,55,0
2.400000,-1.463477,-1.568403,56,0
2.450000,-1.536914,-1.368924,57,0
2.500000,-1.600361,-1.168958,58,0
2.550000,-1.653815,-0.969314,59,0
2.600000,-1.697306,-0.770453,60,0
2.650000,-1.730877,-0.572545,61,0
2.700000,-1.754575,-0.375534,62,0
2.750000,-1.768441,-0.179198,63,0
2.800000,-1.772501,0.016794,64,0
2.850000,-1.766761,0.212823,65,0
2.900000,-1.751212,0.409265,66,0
2.950000,-1.725823,0.606434,67,0
3.000000,-1.690553,0.804526,68,0
3.050000,-1.645354,1.003558,69,0
3.100000,-1.590185,1.203310,70,0
3.150000,-1.525020,1.403257,71,0
3.200000,-1.449870,1.602517,72,0
3.250000,-1.364801,1.799791,73,0
3.300000,-1.269953,1.993323,74,0
3.350000,-1.165568,2.180885,75,0
3.400000,-1.052009,2.359786,76,0
3.450000,-0.929785,2.526927,77,0
3.500000,-0.799569,2.678910,78,0
3.550000,-0.662206,2.812189,79,0
3.600000,-0.518720,2.923282,80,0
3.650000,-0.370301,3.009002,81,0
3.700000,-0.218287,3.066715,82,0
3.750000,-0.064128,3.094552,83,0
3.800000,0.090655,3.091591,84,0
3.850000,0.244519,3.057932,85,0
3.900000,0.395955,2.994697,86,0
3.950000,0.543530,2.903917,87,0
4.000000,0.685933,2.788356,88,0
4.050000,0.822007,2.651273,89,0
4.100000,0.950761,2.496177,90,0
4.150000,1.071383,2.326597,91,0
4.200000,1.183235,2.145879,92,0
4.250000,1.285836,1.957043,93,0
4.300000,1.378848,1.762690,94,0
4.350000,1.462049,1.564954,95,0
4.400000,1.535314,1.365496,96,0
4.450000,1.598590,1.165530,97,0
4.500000,1.651873,0.965865,98,0
4.550000,1.695190,0.766961,99,0
4.600000,1.728584,0.568990,100,0
4.650000,1.752103,0.371898,101,0
4.700000,1.765785,0.175465,102,0
4.750000,1.769655,-0.020636,103,0
4.800000,1.763721,-0.216781,104,0
4.850000,1.747970,-0.413340,105,0
4.900000,1.722375,-0.610620,106,0
4.950000,1.686893,-0.808809,107,0
5.000000,1.641479,-1.007913,108,0
5.050000,1.586090,-1.207700,109,0
5.100000,1.520706,-1.407635,110,0
5.150000,1.445339,-1.606819,111,0
5.200000,1.360058,-1.803939,112,0
5.250000,1.265009,-1.997225,113,0
5.300000,1.160437,-2.184436,114,0
5.350000,1.046711,-2.362869,115,0
5.400000,0.924348,-2.529419,116,0
5.450000,0.794024,-2.680686,117,0
5.500000,0.656593,-2.813132,118,0
5.550000,0.513082,-2.923287,119,0
5.600000,0.364688,-3.007991,120,0
5.650000,0.212751,-3.064635,121,0
5.700000,0.058723,-3.091390,122,0
5.750000,-0.095875,-3.087366,123,0
5.800000,-0.249502,-3.052703,124,0
5.850000,-0.400653,-2.988551,125,0
5.900000,-0.547900,-2.896965,126,0
5.950000,-0.689938,-2.780721,127,0
6.000000,-0.825615,-2.643085,128,0
6.050000,-0.953949,-2.487562,129,0
6.100000,-1.074132,-2.317667,130,0
6.150000,-1.185532,-2.136734,131,0
6.200000,-1.287672,-1.947762,132,0
6.250000,-1.380217,-1.753334,133,0
6.300000,-1.462950,-1.555564,134,0
6.350000,-1.535746,-1.356096,135,0
6.400000,-1.598551,-1.156129,136,0
6.450000,-1.651364,-0.956461,137,0
6.500000,-1.694210,-0.757541,138,0
6.550000,-1.727133,-0.559535,139,0
6.600000,-1.750178,-0.362386,140,0
6.650000,-1.763382,-0.165872,141,0
6.700000,-1.766770,0.030333,142,0
6.750000,-1.760348,0.226599,143,0
6.800000,-1.744103,0.423290,144,0
6.850000,-1.718007,0.620704,145,0
6.900000,-1.682018,0.819014,146,0
6.950000,-1.636091,1.018211,147,0
7.000000,-1.580186,1.218044,148,0
7.050000,-1.514285,1.417953,149,0
7.100000,-1.438405,1.617015,150,0
7.150000,-1.352620,1.813888,151,0
7.200000,-1.257082,2.006776,152,0
7.250000,-1.152046,2.193407,153,0
7.300000,-1.037891,2.371056,154,0
7.350000,-0.915142,2.536602,155,0
7.400000,-0.784489,2.686637,156,0
7.450000,-0.646796,2.817628,157,0
7.500000,-0.503101,2.926128,158,0
7.550000,-0.354610,3.009010,159,0
7.600000,-0.202670,3.063719,160,0
7.650000,-0.048737,3.088484,161,0
7.700000,0.105665,3.082484,162,0
7.750000,0.259001,3.045924,163,0
7.800000,0.409768,2.980012,164,0
7.850000,0.556548,2.886851,165,0
7.900000,0.698046,2.769249,166,0
7.950000,0.833120,2.630485,167,0
8.000000,0.960800,2.474065,168,0
8.050000,1.080291,2.303488,169,0
8.100000,1.190968,2.122064,170,0
8.150000,1.292366,1.932764,171,0
8.200000,1.384156,1.738136,172,0
8.250000,1.466126,1.540261,173,0
8.300000,1.538155,1.340754,174,0
8.350000,1.600194,1.140786,175,0
8.400000,1.652240,0.941131,176,0
8.450000,1.694320,0.742221,177,0
8.500000,1.726477,0.544207,178,0
8.550000,1.748754,0.347022,179,0
8.600000,1.761189,0.150441,180,0
8.650000,1.763803,-0.045863,181,0
8.700000,1.756601,-0.242258,182,0
8.750000,1.739570,-0.439098,183,0
8.800000,1.712679,-0.636667,184,0
8.850000,1.675888,-0.835121,185,0
8.900000,1.629153,-1.034429,186,0
8.950000,1.572436,-1.234311,187,0
9.000000,1.505722,-1.434174,188,0
9.050000,1.429034,-1.633058,189,0
9.100000,1.342455,-1.829580,190,0
9.150000,1.246146,-2.021900,191,0
9.200000,1.140373,-2.207708,192,0
9.250000,1.025529,-2.384241,193,0
9.300000,0.902156,-2.548352,194,0
9.350000,0.770958,-2.696620,195,0
9.400000,0.632817,-2.825521,196,0
9.450000,0.488786,-2.931633,197,0
9.500000,0.340085,-3.011882,198,0
9.550000,0.188071,-3.063784,199,0
9.600000,0.034207,-3.085657,200,0
9.650000,-0.119982,-3.076776,201,0
9.700000,-0.272963,-3.037440,202,0
9.750000,-0.423240,-2.968945,203,0
9.800000,-0.569407,-2.873464,204,0
9.850000,-0.710184,-2.753851,205,0
9.900000,-0.844445,-2.613408,206,0
9.950000,-0.971236,-2.455642,207,0
10.000000,-1.089779,-2.284035,208,0
10.050000,-1.199464,-2.101862,209,0
10.100000,-1.299838,-1.912054,210,0
10.150000,-1.390584,-1.717111,211,0
10.200000,-1.471498,-1.519070,212,0
10.250000,-1.542466,-1.319500,213,0
10.300000,-1.603441,-1.119532,214,0
10.350000,-1.654425,-0.919907,215,0
10.400000,-1.695445,-0.721030,216,0
10.450000,-1.726542,-0.523032,217,0
10.500000,-1.747761,-0.325831,218,0
10.550000,-1.759135,-0.129193,219,0
10.600000,-1.760684,0.067209,220,0
10.650000,-1.752412,0.263741,221,0
10.700000,-1.734302,0.460746,222,0
10.750000,-1.706325,0.658492,223,0
10.800000,-1.668439,0.857112,224,0
10.850000,-1.620600,1.056544,225,0
10.900000,-1.562776,1.256472,226,0
10.950000,-1.494955,1.456259,227,0
11.000000,-1.417169,1.654895,228,0
11.050000,-1.329508,1.850943,229,0
11.100000,-1.232149,2.042508,230,0
11.150000,-1.125372,2.227224,231,0
11.200000,-1.009587,2.402282,232,0
11.250000,-0.885357,2.564500,233,0
11.300000,-0.753408,2.710441,234,0
11.350000,-0.614643,2.836590,235,0
11.400000,-0.470136,2.939563,236,0
11.450000,-0.321123,3.016354,237,0
11.500000,-0.168977,3.064572,238,0
11.550000,-0.015169,3.082651,239,0
11.600000,0.138776,3.069993,240,0
11.650000,0.291325,3.027023,241,0
11.700000,0.440996,2.955148,242,0
11.750000,0.586396,2.856630,243,0
11.800000,0.726263,2.734385,244,0
11.850000,0.859494,2.591745,245,0
11.900000,0.985156,2.432216,246,0
11.950000,1.102492,2.259258,247,0
12.000000,1.210912,2.076103,248,0
12.050000,1.309981,1.885627,249,0
12.100000,1.399394,1.690271,250,0
12.150000,1.478960,1.492011,251,0
12.200000,1.548572,1.292359,252,0
12.250000,1.608191,1.092397,253,0
12.300000,1.657819,0.892821,254,0
12.350000,1.697486,0.694001,255,0
12.400000,1.727233,0.496041,256,0
12.450000,1.747102,0.298839,257,0
12.500000,1.757126,0.102152,258,0
12.550000,1.757321,-0.094352,259,0
12.600000,1.747687,-0.291032,260,0
12.650000,1.728209,-0.488221,261,0
12.700000,1.698853,-0.686165,262,0
12.750000,1.659578,-0.884968,263,0
12.800000,1.610343,-1.084532,264,0
12.850000,1.551118,-1.284492,265,0
12.900000,1.481899,-1.484159,266,0
12.950000,1.402725,-1.682459,267,0
13.000000,1.313700,-1.877889,268,0
13.050000,1.215016,-2.068483,269,0
13.100000,1.106973,-2.251808,270,0
13.150000,0.990004,-2.424999,271,0
13.200000,0.864695,-2.584830,272,0
13.250000,0.731801,-2.727849,273,0
13.300000,0.592249,-2.850553,274,0
13.350000,0.447140,-2.949609,275,0
13.400000,0.297731,-3.022096,276,0
13.450000,0.145411,-3.065745,277,0
13.500000,-0.008339,-3.079132,278,0
13.550000,-0.161990,-3.061817,279,0
13.600000,-0.314018,-3.014376,280,0
13.650000,-0.462951,-2.938355,281,0
13.700000,-0.607416,-2.836122,282,0
13.750000,-0.746176,-2.710665,283,0
13.800000,-0.878152,-2.565351,284,0
13.850000,-1.002439,-2.403683,285,0
13.900000,-1.118305,-2.229089,286,0
13.950000,-1.225185,-2.044748,287,0
14.000000,-1.322664,-1.853469,288,0
14.050000,-1.410456,-1.657620,289,0
14.100000,-1.488382,-1.459103,290,0
14.150000,-1.556346,-1.259361,291,0
14.200000,-1.614315,-1.059415,292,0
14.250000,-1.662295,-0.859907,293,0
14.300000,-1.700319,-0.661166,294,0
14.350000,-1.728426,-0.463262,295,0
14.400000,-1.746657,-0.266072,296,0
14.450000,-1.755041,-0.069338,297,0
14.500000,-1.753593,0.127274,298,0
14.550000,-1.742310,0.324118,299,0
14.600000,-1.721172,0.521509,300,0
14.650000,-1.690146,0.719672,301,0
14.700000,-1.649190,0.918672,302,0
14.750000,-1.598267,1.118367,303,0
14.800000,-1.537349,1.318335,304,0
14.850000,-1.466441,1.517821,305,0
14.900000,-1.385594,1.715675,306,0
14.950000,-1.294927,1.910312,307,0
15.000000,-1.194650,2.099685,308,0
15.050000,-1.085088,2.281281,309,0
15.100000,-0.966700,2.452168,310,0
15.150000,-0.840104,2.609074,311,0
15.200000,-0.706083,2.748532,312,0
15.250000,-0.565599,2.867059,313,0
15.300000,-0.419781,2.961387,314,0
15.350000,-0.269911,3.028705,315,0
15.400000,-0.117397,3.066889,316,0
15.450000,0.036271,3.074691,317,0
15.500000,0.189562,3.051854,318,0
15.550000,0.340958,2.999138,319,0
15.600000,0.489005,2.918245,320,0
15.650000,0.632354,2.811666,321,0
15.700000,0.769795,2.682468,322,0
15.750000,0.900281,2.534050,323,0
15.800000,1.022938,2.369912,324,0
15.850000,1.137067,2.193439,325,0
15.900000,1.242129,2.007745,326,0
15.950000,1.337733,1.815558,327,0
16.000000,1.423615,1.619159,328,0
16.050000,1.499609,1.420363,329,0
16.100000,1.565634,1.220534,330,0
16.150000,1.621662,1.020619,331,0
16.200000,1.667704,0.821202,332,0
16.250000,1.703795,0.622560,333,0
16.300000,1.729974,0.424727,334,0
16.350000,1.746279,0.227556,335,0
16.400000,1.752736,0.030773,336,0
16.450000,1.749357,-0.165958,337,0
16.500000,1.736135,-0.362984,338,0
16.550000,1.713048,-0.560601,339,0
16.600000,1.680062,-0.759000,340,0
16.650000,1.637135,-0.958207,341,0
16.700000,1.584231,-1.158022,342,0
16.750000,1.521331,-1.357957,343,0
16.800000,1.448447,-1.557177,344,0
16.850000,1.365645,-1.754445,345,0
16.900000,1.273063,-1.948081,346,0
16.950000,1.170933,-2.135939,347,0
17.000000,1.059608,-2.315420,348,0
17.050000,0.939581,-2.483515,349,0
17.100000,0.811501,-2.636906,350,0
17.150000,0.676193,-2.772112,351,0
17.200000,0.534651,-2.885683,352,0
17.250000,0.388038,-2.974438,353,0
17.300000,0.237666,-3.035697,354,0
17.350000,0.084960,-3.067514,355,0
17.400000,-0.068577,-3.068845,356,0
17.450000,-0.221416,-3.039649,357,0
17.500000,-0.372049,-2.980890,358,0
17.550000,-0.519043,-2.894448,359,0
17.600000,-0.661076,-2.782946,360,0
17.650000,-0.796972,-2.649535,361,0
17.700000,-0.925722,-2.497646,362,0
17.750000,-1.046487,-2.330761,363,0
17.800000,-1.158604,-2.152214,364,0
17.850000,-1.261565,-1.965040,365,0
17.900000,-1.355008,-1.771872,366,0
17.950000,-1.438689,-1.574891,367,0
18.000000,-1.512462,-1.375812,368,0
18.050000,-1.576257,-1.175908,369,0
18.100000,-1.630054,-0.976046,370,0
18.150000,-1.673871,-0.776741,371,0
18.200000,-1.707741,-0.578217,372,0
18.250000,-1.731706,-0.380467,373,0
18.300000,-1.745798,-0.183316,374,0
18.350000,-1.750042,0.013525,375,0
18.400000,-1.744445,0.210392,376,0
18.450000,-1.728997,0.407621,377,0
18.500000,-1.703672,0.605485,378,0
18.550000,-1.668435,0.804137,379,0
18.600000,-1.623246,1.003551,380,0
18.650000,-1.568072,1.203462,381,0
18.700000,-1.502901,1.403304,382,0
18.750000,-1.427758,1.602147,383,0
18.800000,-1.342725,1.798653,384,0
18.850000,-1.247961,1.991034,385,0
18.900000,-1.143727,2.177035,386,0
18.950000,-1.030409,2.353956,387,0
19.000000,-0.908534,2.518711,388,0
19.050000,-0.778796,2.667934,389,0
19.100000,-0.642058,2.798138,390,0
19.150000,-0.499356,2.905928,391,0
19.200000,-0.351890,2.988224,392,0
19.250000,-0.201001,3.042514,393,0
19.300000,-0.048135,3.067056,394,0
19.350000,0.105195,3.061045,395,0
19.400000,0.257463,3.024683,396,0
19.450000,0.407177,2.959162,397,0
19.500000,0.552928,2.866552,398,0
19.550000,0.693427,2.749618,399,0
19.600000,0.827538,2.611589,400,0
19.650000,0.954292,2.455923,401,0
19.700000,1.072894,2.286075,402,0
19.750000,1.182718,2.105313,403,0
19.800000,1.283293,1.916576,404,0
19.850000,1.374285,1.722389,405,0
19.900000,1.455476,1.524819,406,0
19.950000,1.526737,1.325471,407,0
