A,B,theta,x,
6.000000,0.000000,0.000000,0.000000 
5.970025,0.599000,0.100000,-0.100166 
5.880399,1.192016,0.200000,-0.201322 
5.732019,1.773121,0.300000,-0.304415 
5.526366,2.336510,0.400000,-0.410295 
5.265495,2.876553,0.500000,-0.519652 
4.952014,3.387855,0.600000,-0.632934 
4.589053,3.865306,0.700000,-0.750261 
4.180240,4.304137,0.800000,-0.871367 
3.729660,4.699961,0.900000,-0.995578 
3.241814,5.048826,1.000000,-1.121864 
2.721577,5.347244,1.100000,-1.248940 
2.174147,5.592235,1.200000,-1.375404 
1.604993,5.781349,1.300000,-1.499864 
1.019803,5.912698,1.400000,-1.621022 
0.424423,5.984970,1.500000,-1.737730 
-0.175197,5.997442,1.600000,-1.849002 
-0.773067,5.949989,1.700000,-1.953997 
-1.363213,5.843086,1.800000,-2.052003 
-1.939737,5.677801,1.900000,-2.142412 
-2.496881,5.455785,2.000000,-2.224693 
-3.029077,5.179256,2.100000,-2.298373 
-3.531007,4.850978,2.200000,-2.363023 
-3.997656,4.474231,2.300000,-2.418235 
-4.424362,4.052779,2.400000,-2.463618 
-4.806862,3.590833,2.500000,-2.498779 
-5.141333,3.093008,2.600000,-2.523312 
-5.424433,2.564279,2.700000,-2.536784 
-5.653334,2.009929,2.800000,-2.538710 
-5.825749,1.435496,2.900000,-2.528531 
-5.939955,0.846720,3.000000,-2.505572 
-5.994811,0.249484,3.100000,-2.468979 
-5.989769,-0.350245,3.200000,-2.417622 
-5.924879,-0.946474,3.300000,-2.349917 
-5.800789,-1.533247,3.400000,-2.263495 
-5.618740,-2.104699,3.500000,-2.154496 
-5.380550,-2.655123,3.600000,-2.015784 
-5.088600,-3.179017,3.700000,-1.830934 
-4.745806,-3.671147,3.800000,-1.533645 
-4.355594,-4.126597,3.900000,2.456691 
-3.921862,-4.540815,4.000000,2.409628 
-3.448944,-4.909663,4.100000,2.352801 
-2.941565,-5.229455,4.200000,2.286605 
-2.404795,-5.496996,4.300000,2.211447 
-1.843997,-5.709612,4.400000,2.127765 
-1.264775,-5.865181,4.500000,2.036039 
-0.672915,-5.962146,4.600000,1.936813 
-0.074332,-5.999540,4.700000,1.830710 
0.524994,-5.976988,4.800000,1.718462 
1.119074,-5.894716,4.900000,1.600931 
1.701973,-5.753546,5.000000,1.479133 
2.267866,-5.554888,5.100000,1.354243 
2.811100,-5.300728,5.200000,1.227576 
3.326246,-4.993605,5.300000,1.100537 
3.808157,-4.636587,5.400000,0.974516 
4.252019,-4.233242,5.500000,0.850763 
4.653395,-3.787600,5.600000,0.730257 
5.008277,-3.304113,5.700000,0.613602 
5.313117,-2.787613,5.800000,0.500998 
5.564871,-2.243260,5.900000,0.392265 
5.761022,-1.676493,6.000000,0.286907 
5.899611,-1.092975,6.100000,0.184203 
5.979253,-0.498536,6.200000,0.083281 
5.999152,0.100883,6.300000,-0.016815 
5.959110,0.699295,6.400000,-0.117080 
5.859526,1.290720,6.500000,-0.218497 
5.701396,1.869248,6.600000,-0.322002 
5.486299,2.429100,6.700000,-0.428424 
5.216385,2.964680,6.800000,-0.538418 
4.894351,3.470639,6.900000,-0.652382 
4.523414,3.941920,7.000000,-0.770374 
4.107280,4.373814,7.100000,-0.892060 
3.650108,4.762007,7.200000,-1.016700 
3.156465,5.102620,7.300000,-1.143213 
2.631284,5.392249,7.400000,-1.270286 
2.079812,5.628000,7.500000,-1.396509 
1.507559,5.807518,7.600000,-1.520500 
0.920243,5.929009,7.700000,-1.640986 
0.323733,5.991260,7.800000,-1.756845 
-0.276013,5.993648,7.900000,-1.867116 
-0.873000,5.936149,8.000000,-1.970982 
-1.461265,5.819339,8.100000,-2.067752 
-2.034929,5.644383,8.200000,-2.156829 
-2.588261,5.413031,8.300000,-2.237696 
-3.115732,5.127593,8.400000,-2.309887 
-3.612071,4.790923,8.500000,-2.372977 
-4.072320,4.406383,8.600000,-2.426564 
-4.491880,3.977815,8.700000,-2.470256 
-4.866558,3.509503,8.800000,-2.503659 
-5.192611,3.006125,8.900000,-2.526364 
-5.466782,2.472711,9.000000,-2.537929 
-5.686330,1.914590,9.100000,-2.537861 
-5.849062,1.337339,9.200000,-2.525585 
-5.953352,0.746727,9.300000,-2.500399 
-5.998158,0.148653,9.400000,-2.461412 
-5.983033,-0.450907,9.500000,-2.407433 
-5.908127,-1.045961,9.600000,-2.336775 
-5.774189,-1.630564,9.700000,-2.246884 
-5.582558,-2.198875,9.800000,-2.133525 
-5.335147,-2.745215,9.900000,-1.988643 
-5.034429,-3.264127,10.000000,-1.792649 
-4.683409,-3.750424,10.100000,-1.444941 
-4.285594,-4.199248,10.200000,2.449477 
-3.844959,-4.606115,10.300000,2.400745 
-3.365906,-4.966959,10.400000,2.342315 
-2.853222,-5.278175,10.500000,2.274582 
-2.312029,-5.536653,10.600000,2.197959 
-1.747736,-5.739810,10.700000,2.112890 
-1.165979,-5.885617,10.800000,2.019863 
-0.572573,-5.972618,10.900000,1.919434 
0.026554,-5.999941,11.000000,1.812244 
0.625416,-5.967316,11.100000,1.699043 
1.218029,-5.875066,11.200000,1.580720 
1.798472,-5.724115,11.300000,1.458315 
2.360945,-5.515971,11.400000,1.333031 
2.899829,-5.252713,11.500000,1.206202 
3.409738,-4.936972,11.600000,1.079239 
3.885578,-4.571902,11.700000,0.953518 
4.322595,-4.161151,11.800000,0.830252 
4.716422,-3.708823,11.900000,0.710362 
5.063124,-3.219438,12.000000,0.594385 
5.359237,-2.697885,12.100000,0.482454 
5.601802,-2.149376,12.200000,0.374330 
5.788396,-1.579391,12.300000,0.269474 
5.917154,-0.993625,12.400000,0.167134 
5.986790,-0.397931,12.500000,0.066419 
5.996608,0.201738,12.600000,-0.033636 
5.946509,0.799392,12.700000,-0.134026 
5.836995,1.389059,12.800000,-0.235731 
5.669160,1.964847,12.900000,-0.339672 
5.444681,2.521002,13.000000,-0.446655 
5.165800,3.051969,13.100000,-0.557297 
4.835304,3.552441,13.200000,-0.671944 
4.456495,4.017419,13.300000,-0.790592 
4.033159,4.442255,13.400000,-0.912837 
3.569524,4.822707,13.500000,-1.037876 
3.070224,5.154971,13.600000,-1.164579 
2.540247,5.435728,13.700000,-1.291608 
1.984889,5.662174,13.800000,-1.417550 
1.409699,5.832045,13.900000,-1.541037 
0.820423,5.943644,14.000000,-1.660819 
0.222950,5.995856,14.100000,-1.775802 
-0.376750,5.988160,14.200000,-1.885049 
-0.972687,5.920632,14.300000,-1.987768 
-1.558904,5.793947,14.400000,-2.083283 
-2.129546,5.609370,14.500000,-2.171014 
-2.678909,5.368747,14.600000,-2.250453 
-3.201506,5.074481,14.700000,-2.321143 
-3.692115,4.729512,14.800000,-2.382663 
-4.145833,4.337288,14.900000,-2.434614 
-4.558127,3.901727,15.000000,-2.476603 
-4.924879,3.427181,15.100000,-2.508236 
-5.242422,2.918392,15.200000,-2.529100 
-5.507585,2.380443,15.300000,-2.538746 
-5.717718,1.818710,15.400000,-2.536668 
-5.870721,1.238805,15.500000,-2.522274 
-5.965066,0.646522,15.600000,-2.494837 
-5.999810,0.047779,15.700000,-2.453423 
-5.974606,-0.551441,15.800000,-2.396775 
-5.889705,-1.145151,15.900000,-2.323093 
-5.745957,-1.727420,16.000000,-2.229618 
-5.544797,-2.292429,16.100000,-2.111683 
-5.288235,-2.834532,16.200000,-1.960140 
-4.978835,-3.348314,16.300000,-1.751251 
-4.619688,-3.828640,16.400000,2.482345 
-4.214382,-4.270712,16.500000,2.441978 
-3.766968,-4.670112,16.600000,2.391588 
-3.281916,-5.022851,16.700000,2.331566 
-2.764072,-5.325402,16.800000,2.262308 
-2.218610,-5.574744,16.900000,2.184233 
-1.650980,-5.768385,17.000000,2.097790 
-1.066854,-5.904390,17.100000,2.003478 
-0.472069,-5.981400,17.200000,1.901864 
0.127433,-5.998647,17.300000,1.793607 
0.725662,-5.955956,17.400000,1.679479 
1.316640,-5.853756,17.500000,1.560392 
1.894463,-5.693067,17.600000,1.437416 
2.453356,-5.475495,17.700000,1.311775 
2.987737,-5.203213,17.800000,1.184825 
3.492266,-4.878943,17.900000,1.057976 
3.961900,-4.505923,18.000000,0.932590 
4.391949,-4.087883,18.100000,0.809837 
4.778115,-3.628997,18.200000,0.690578 
5.116539,-3.133852,18.300000,0.575284 
5.403841,-2.607394,18.400000,0.464019 
5.637149,-2.054884,18.500000,0.356489 
5.814133,-1.481842,18.600000,0.252113 
5.933024,-0.893994,18.700000,0.150111 
5.992634,-0.297214,18.800000,0.049576 
5.992368,0.302536,18.900000,-0.050465 
5.932228,0.899263,19.000000,-0.151009 
5.812815,1.487005,19.100000,-0.253028 
5.635322,2.059890,19.200000,-0.357429 
5.401523,2.612192,19.300000,-0.464990 
5.113754,3.138395,19.400000,-0.576290 
4.774890,3.633239,19.500000,-0.691620 
4.388317,4.091782,19.600000,-0.810913 
3.957897,4.509440,19.700000,-0.933693 
3.487931,4.882042,19.800000,-1.059099 
2.983115,5.205865,19.900000,-1.185954 
2.448492,5.477672,20.000000,-1.312899 
1.889405,5.694747,20.100000,-1.438522 
1.311440,5.854923,20.200000,-1.561469 
0.720371,5.956598,20.300000,-1.680516 
0.122105,5.998757,20.400000,-1.794596 
-0.477381,5.980979,20.500000,-1.902797 
-1.072098,5.903440,20.600000,-2.004349 
-1.656103,5.766916,20.700000,-2.098593 
-2.223560,5.572771,20.800000,-2.184964 
-2.768800,5.322945,20.900000,-2.262963 
-3.286376,5.019934,21.000000,-2.332140 
-3.771115,4.666765,21.100000,-2.392078 
-4.218174,4.266967,21.200000,-2.442381 
-4.623086,3.824536,21.300000,-2.482657 
-4.981807,3.343890,21.400000,-2.512509 
-5.290750,2.829834,21.500000,-2.531519 
-5.546831,2.287503,21.600000,-2.539231 
-5.747489,1.722316,21.700000,-2.535127 
-5.890720,1.139920,21.800000,-2.518595 
-5.975093,0.546134,21.900000,-2.488880 
-5.999765,-0.053108,22.000000,-2.445004 
-5.964489,-0.651820,22.100000,-2.385637 
-5.869618,-1.244019,22.200000,-2.308856 
-5.716100,-1.823788,22.300000,-2.211669 
-5.505468,-2.385334,22.400000,-2.088915 
-5.239828,-2.923047,22.500000,-1.930129 
-4.921833,-3.431554,22.600000,-1.705971 
-4.554660,-3.905774,22.700000,2.476275 
-4.141979,-4.340969,22.800000,2.434195 
-3.687913,-4.732790,22.900000,2.382158 
-3.196998,-5.077322,23.000000,2.320555 
-2.674140,-5.371124,23.100000,2.249785 
-2.124563,-5.611259,23.200000,2.170271 
-1.553758,-5.795329,23.300000,2.082468 
-0.967428,-5.921493,23.400000,1.986886 
-0.371432,-5.988492,23.500000,1.884106 
0.228275,-5.995656,23.600000,1.774804 
0.825702,-5.942913,23.700000,1.659775 
1.414878,-5.830791,23.800000,1.539955 
1.989917,-5.660409,23.900000,1.416440 
2.545074,-5.433470,24.000000,1.290482 
3.074801,-5.152242,24.100000,1.163450 
3.573806,-4.819534,24.200000,1.036756 
4.037102,-4.438672,24.300000,0.911737 
4.460061,-4.013459,24.400000,0.789522 
4.838457,-3.548145,24.500000,0.670908 
5.168508,-3.047380,24.600000,0.556297 
5.446918,-2.516165,24.700000,0.445690 
5.670903,-1.959811,24.800000,0.338737 
5.838227,-1.383874,24.900000,0.234819 
5.947217,-0.794111,25.000000,0.133130 
5.996784,-0.196412,25.100000,0.032747 
5.986434,0.403248,25.200000,-0.067309 
5.916269,0.998880,25.300000,-0.168034 
5.786991,1.584531,25.400000,-0.270393 
5.599891,2.154350,25.500000,-0.375275 
5.356838,2.702644,25.600000,-0.483431 
5.060262,3.223933,25.700000,-0.595397 
4.713126,3.713010,25.800000,-0.711410 
4.318897,4.164988,25.900000,-0.831333 
3.881516,4.575351,26.000000,-0.954625 
3.405352,4.939998,26.100000,-1.080363 
2.895162,5.255286,26.200000,-1.207332 
2.356045,5.518066,26.300000,-1.334153 
1.793387,5.725711,26.400000,-1.459417 
1.212811,5.876146,26.500000,-1.581790 
0.620116,5.967869,26.600000,-1.700072 
0.021225,5.999962,26.700000,-1.813223 
-0.577878,5.972107,26.800000,-1.920357 
-1.171206,5.884579,26.900000,-2.020723 
-1.752833,5.738256,27.000000,-2.113681 
-2.316946,5.534597,27.100000,-2.198678 
-2.857908,5.275638,27.200000,-2.275224 
-3.370316,4.963967,27.300000,-2.342876 
-3.849048,4.602698,27.400000,-2.401221 
-4.289322,4.195440,27.500000,-2.449865 
-4.686738,3.746263,27.600000,-2.488417 
-5.037326,3.259654,27.700000,-2.516476 
-5.337583,2.740476,27.800000,-2.533619 
-5.584508,2.193916,27.900000,-2.539383 
-5.775635,1.625435,28.000000,-2.533235 
-5.909054,1.040713,28.100000,-2.514544 
-5.983431,0.445593,28.200000,-2.482523 
-5.998024,-0.153980,28.300000,-2.436148 
-5.952686,-0.752014,28.400000,-2.374009 
-5.847872,-1.342534,28.500000,-2.294046 
-5.684627,-1.919640,28.600000,-2.193007 
-5.464583,-2.477565,28.700000,-2.065160 
-5.189939,-3.010736,28.800000,-1.898428 
-4.863439,-3.513824,28.900000,-1.655620 
-4.488345,-3.981803,29.000000,2.469913 
-4.068405,-4.409998,29.100000,2.426131 
-3.607815,-4.794129,29.200000,2.372458 
-3.111177,-5.130359,29.300000,2.309285 
-2.583452,-5.415328,29.400000,2.237015 
-2.029915,-5.646188,29.500000,2.156073 
-1.456096,-5.820634,29.600000,2.066925 
-0.867728,-5.936922,29.700000,1.970090 
-0.270689,-5.993891,29.800000,1.866164 
0.329054,-5.990970,29.900000,1.755840 
0.925509,-5.928190,30.000000,1.639935 
1.512716,-5.806177,30.100000,1.519412 
2.084810,-5.626150,30.200000,1.395396 
2.636072,-5.389909,30.300000,1.269159 
3.160996,-5.099814,30.400000,1.142085 
3.654336,-4.758763,30.500000,1.015583 
4.111163,-4.370165,30.600000,0.890965 
4.526913,-3.937901,30.700000,0.769309 
4.897431,-3.466290,30.800000,0.651351 
5.219016,-2.960046,30.900000,0.537424 
5.488454,-2.424226,31.000000,0.427464 
5.703053,-1.864184,31.100000,0.321071 
5.860670,-1.285515,31.200000,0.217588 
5.959728,-0.694002,31.300000,0.116185 
5.999239,-0.095555,31.400000,0.015927 
5.978807,0.503847,31.500000,-0.084172 
5.898638,1.098214,31.600000,-0.185106 
5.759530,1.681609,31.700000,-0.287830 
5.562876,2.248202,31.800000,-0.393215 
5.310639,2.792331,31.900000,-0.501981 
5.005340,3.308560,32.000000,-0.614620 
4.650029,3.791731,32.100000,-0.731311 
4.248257,4.237017,32.200000,-0.851849 
3.804038,4.639967,32.300000,-0.975627 
3.321810,4.996557,32.400000,-1.101662 
2.806391,5.303223,32.500000,-1.228705 
2.262932,5.556900,32.600000,-1.355362 
1.696862,5.755055,32.700000,-1.480231 
1.113838,5.895707,32.800000,-1.601995 
0.519685,5.977452,32.900000,-1.719483 
-0.079660,5.999471,33.000000,-1.831680 
-0.678210,5.961546,33.100000,-1.937725 
-1.269983,5.864055,33.200000,-2.036888 
-1.849068,5.707972,33.300000,-2.128544 
-2.409676,5.494858,33.400000,-2.212152 
-2.946208,5.226840,33.500000,-2.287233 
-3.453303,4.906598,33.600000,-2.353348 
-3.925893,4.537330,33.700000,-2.410090 
-4.359257,4.122727,33.800000,-2.457064 
-4.749065,3.666931,33.900000,-2.493880 
-5.091422,3.174496,34.000000,-2.520134 
-5.382907,2.650343,34.100000,-2.535398 
-5.620607,2.099708,34.200000,-2.539198 
-5.802149,1.528094,34.300000,-2.530988 
-5.925717,0.941212,34.400000,-2.510116 
-5.990077,0.344925,34.500000,-2.475762 
-5.994587,-0.254808,34.600000,-2.426848 
-5.939201,-0.851995,34.700000,-2.361879 
-5.824472,-1.440670,34.800000,-2.278645 
-5.651547,-2.014949,34.900000,-2.173600 
-5.422153,-2.569096,35.000000,-2.040344 
-5.138583,-3.097573,35.100000,-1.864810 
-4.803671,-3.595101,35.200000,-1.598177 
-4.420761,-4.056707,35.300000,2.463259 
-3.993681,-4.477780,35.400000,2.417787 
-3.526697,-4.854113,35.500000,2.362490 
-3.024475,-5.181944,35.600000,2.297758 
-2.492034,-5.458000,35.700000,2.223999 
-1.934694,-5.679521,35.800000,2.141644 
-1.358022,-5.844294,35.900000,2.051165 
-0.767782,-5.950673,36.000000,1.953094 
-0.169870,-5.997595,36.100000,1.848040 
0.429739,-5.984591,36.200000,1.736716 
1.025054,-5.911790,36.300000,1.619963 
1.610127,-5.779921,36.400000,1.498771 
2.179112,-5.590301,36.500000,1.374288 
2.726325,-5.344825,36.600000,1.247812 
3.246297,-5.045945,36.700000,1.120737 
3.733833,-4.696647,36.800000,0.994464 
4.184061,-4.300422,36.900000,0.870277 
4.592484,-3.861229,37.000000,0.749202 
4.955021,-3.383455,37.100000,0.631910 
5.268048,-2.871876,37.200000,0.518664 
5.528439,-2.331601,37.300000,0.409340 
5.733591,-1.768030,37.400000,0.303488 
5.881456,-1.186793,37.500000,0.200417 
5.970555,-0.593698,37.600000,0.099274 
5.999998,0.005329,37.700000,-0.000888 
5.969491,0.604303,37.800000,-0.101059 
5.879338,1.197238,37.900000,-0.202228 
5.730442,1.778211,38.000000,-0.305342 
5.524289,2.341417,38.100000,-0.411250 
5.262938,2.881229,38.200000,-0.520641 
4.949003,3.392252,38.300000,-0.633958 
4.585618,3.869380,38.400000,-0.751321 
4.176416,4.307848,38.500000,-0.872458 
3.725484,4.703272,38.600000,-0.996692 
3.237328,5.051703,38.700000,-1.122991 
2.716826,5.349659,38.800000,-1.250068 
2.169179,5.594163,38.900000,-1.376521 
1.599858,5.782772,39.000000,-1.500956 
1.014551,5.913602,39.100000,-1.622079 
0.419107,5.985345,39.200000,-1.738744 
-0.180524,5.997284,39.300000,-1.849963 
-0.778351,5.949300,39.400000,-1.954899 
-1.368402,5.841873,39.500000,-2.052840 
-1.944779,5.676075,39.600000,-2.143179 
-2.501726,5.453565,39.700000,-2.225386 
-3.033675,5.176564,39.800000,-2.298988 
-3.535314,4.847840,39.900000,-2.363555 
-4.001628,4.470679,40.000000,-2.418682 
-4.427960,4.048848,40.100000,-2.463976 
-4.810049,3.586562,40.200000,-2.499044 
-5.144078,3.088441,40.300000,-2.523481 
-5.426708,2.559461,40.400000,-2.536852 
-5.655117,2.004907,40.500000,-2.538673 
-5.827022,1.430321,40.600000,-2.528384 
-5.940705,0.841444,40.700000,-2.505308 
-5.995030,0.244160,40.800000,-2.468590 
-5.989455,-0.355565,40.900000,-2.417096 
-5.924036,-0.951736,41.000000,-2.349236 
-5.799425,-1.538398,41.100000,-2.262633 
-5.616869,-2.109689,41.200000,-2.153409 
-5.378190,-2.659900,41.300000,-2.014382 
-5.085775,-3.183535,41.400000,-1.828980 
-4.742544,-3.675361,41.500000,-1.529629 
-4.351927,-4.130464,41.600000,2.456317 
-3.917827,-4.544296,41.700000,2.409166 
-3.444582,-4.912724,41.800000,2.352254 
-2.936919,-5.232065,41.900000,2.285976 
-2.399912,-5.499129,42.000000,2.210740 
-1.838925,-5.711248,42.100000,2.126985 
-1.259565,-5.866302,42.200000,2.035190 
-0.667620,-5.962741,42.300000,1.935900 
-0.069003,-5.999603,42.400000,1.829739 
0.530302,-5.976519,42.500000,1.717440 
1.124309,-5.893719,42.600000,1.599866 
1.707082,-5.752032,42.700000,1.478036 
2.272799,-5.552872,42.800000,1.353124 
2.815807,-5.298229,42.900000,1.226448 
3.330680,-4.990648,43.000000,1.099411 
3.812274,-4.633203,43.100000,0.973405 
4.255777,-4.229464,43.200000,0.849677 
4.656757,-3.783465,43.300000,0.729203 
5.011209,-3.299664,43.400000,0.612584 
5.315591,-2.782893,43.500000,0.500016 
5.566861,-2.238317,43.600000,0.391315 
5.762508,-1.671376,43.700000,0.285984 
5.900579,-1.087735,43.800000,0.183300 
5.979693,-0.493226,43.900000,0.082390 
5.999060,0.106212,44.000000,-0.017704 
5.958486,0.704588,44.100000,-0.117974 
5.858377,1.295924,44.200000,-0.219406 
5.699733,1.874311,44.300000,-0.322933 
5.484139,2.433971,44.400000,-0.429385 
5.213750,2.969312,44.500000,-0.539412 
4.891266,3.474984,44.600000,-0.653412 
4.519911,3.945936,44.700000,-0.771439 
4.103394,4.377460,44.800000,-0.893155 
3.645877,4.765247,44.900000,-1.017817 
3.151932,5.105421,45.000000,-1.144341 
2.626494,5.394583,45.100000,-1.271413 
2.074813,5.629845,45.200000,-1.397622 
1.502400,5.808855,45.300000,-1.521587 
0.914977,5.929824,45.400000,-1.642037 
0.318411,5.991545,45.500000,-1.757851 
-0.281336,5.993401,45.600000,-1.868068 
-0.878272,5.935372,45.700000,-1.971874 
-1.466433,5.818039,45.800000,-2.068577 
-2.039941,5.642574,45.900000,-2.157584 
-2.593068,5.410730,46.000000,-2.238376 
-3.120285,5.124824,46.100000,-2.310488 
-3.616325,4.787713,46.200000,-2.373496 
-4.076232,4.402764,46.300000,-2.426996 
-4.495411,3.973824,46.400000,-2.470599 
-4.869673,3.505180,46.500000,-2.503908 
-5.195279,3.001512,46.600000,-2.526516 
-5.468976,2.467855,46.700000,-2.537980 
-5.688028,1.909539,46.800000,-2.537807 
-5.850247,1.332144,46.900000,-2.525419 
-5.954013,0.741439,47.000000,-2.500115 
-5.998288,0.143325,47.100000,-2.461001 
-5.982630,-0.456220,47.200000,-2.406882 
-5.907196,-1.051208,47.300000,-2.336066 
-5.772739,-1.635692,47.400000,-2.245989 
-5.580602,-2.203832,47.500000,-2.132393 
-5.332707,-2.749953,47.600000,-1.987173 
-5.031528,-3.268597,47.700000,-1.790545 
-4.680076,-3.754582,47.800000,-1.439183 
-4.281863,-4.203053,47.900000,2.449088 
-3.840866,-4.609528,48.000000,2.400268 
-3.361493,-4.969946,48.100000,2.341754 
-2.848533,-5.280707,48.200000,2.273940 
-2.307111,-5.538704,48.300000,2.197240 
-1.742637,-5.741360,48.400000,2.112098 
-1.160752,-5.886651,48.500000,2.019003 
-0.567268,-5.973124,48.600000,1.918511 
0.031883,-5.999915,48.700000,1.811263 
0.630716,-5.966758,48.800000,1.698013 
1.223247,-5.873982,48.900000,1.579649 
1.803555,-5.722516,49.000000,1.457213 
2.365843,-5.513872,49.100000,1.331909 
2.904493,-5.250135,49.200000,1.205073 
3.414121,-4.933941,49.300000,1.078115 
3.889637,-4.568449,49.400000,0.952410 
4.326289,-4.157310,49.500000,0.829171 
4.719714,-3.704632,49.600000,0.709314 
5.065981,-3.214939,49.700000,0.593373 
5.361631,-2.693124,49.800000,0.481478 
5.603709,-2.144400,49.900000,0.373385 
5.789796,-1.574249,50.000000,0.268555 
5.918034,-0.988369,50.100000,0.166234 
5.987141,-0.392614,50.200000,0.065529 
5.996426,0.207064,50.300000,-0.034524 
5.945797,0.804673,50.400000,-0.134922 
5.835759,1.394243,50.500000,-0.236643 
5.667413,1.969881,50.600000,-0.340608 
